20.0001 344.0
20.0252 371.0
20.0503 311.0
20.0755 297.0
20.1006 291.0
20.1257 301.0
20.1508 306.0
20.176 303.0
20.2011 298.0
20.2262 285.0
20.2513 303.0
20.2764 288.0
20.3016 296.0
20.3267 294.0
20.3518 331.0
20.3769 339.0
20.402 398.0
20.4272 413.0
20.4523 411.0
20.4774 465.0
20.5025 472.0
20.5277 412.0
20.5528 423.0
20.5779 397.0
20.603 332.0
20.6281 314.0
20.6533 309.0
20.6784 307.0
20.7035 297.0
20.7286 297.0
20.7538 310.0
20.7789 307.0
20.804 298.0
20.8291 283.0
20.8542 292.0
20.8794 298.0
20.9045 298.0
20.9296 296.0
20.9547 276.0
20.9798 287.0
21.005 300.0
21.0301 258.0
21.0552 306.0
21.0803 276.0
21.1055 264.0
21.1306 276.0
21.1557 281.0
21.1808 293.0
21.2059 227.0
21.2311 239.0
21.2562 250.0
21.2813 242.0
21.3064 278.0
21.3316 274.0
21.3567 281.0
21.3818 279.0
21.4069 278.0
21.432 258.0
21.4572 298.0
21.4823 272.0
21.5074 280.0
21.5325 271.0
21.5577 297.0
21.5828 266.0
21.6079 253.0
21.633 267.0
21.6581 243.0
21.6833 231.0
21.7084 246.0
21.7335 299.0
21.7586 273.0
21.7837 271.0
21.8089 262.0
21.834 261.0
21.8591 288.0
21.8842 267.0
21.9094 257.0
21.9345 250.0
21.9596 261.0
21.9847 234.0
22.0098 270.0
22.035 259.0
22.0601 307.0
22.0852 276.0
22.1103 271.0
22.1355 266.0
22.1606 260.0
22.1857 233.0
22.2108 288.0
22.2359 230.0
22.2611 262.0
22.2862 251.0
22.3113 241.0
22.3364 221.0
22.3615 273.0
22.3867 263.0
22.4118 260.0
22.4369 262.0
22.462 248.0
22.4872 253.0
22.5123 261.0
22.5374 268.0
22.5625 281.0
22.5876 254.0
22.6128 243.0
22.6379 289.0
22.663 262.0
22.6881 277.0
22.7133 283.0
22.7384 303.0
22.7635 300.0
22.7886 315.0
22.8137 289.0
22.8389 289.0
22.864 329.0
22.8891 300.0
22.9142 308.0
22.9393 308.0
22.9645 284.0
22.9896 273.0
23.0147 281.0
23.0398 268.0
23.065 265.0
23.0901 268.0
23.1152 260.0
23.1403 260.0
23.1654 278.0
23.1906 266.0
23.2157 287.0
23.2408 293.0
23.2659 274.0
23.2911 294.0
23.3162 322.0
23.3413 309.0
23.3664 276.0
23.3915 298.0
23.4167 281.0
23.4418 274.0
23.4669 306.0
23.492 305.0
23.5171 292.0
23.5423 279.0
23.5674 315.0
23.5925 324.0
23.6176 299.0
23.6428 368.0
23.6679 386.0
23.693 446.0
23.7181 446.0
23.7432 510.0
23.7684 601.0
23.7935 703.0
23.8186 941.0
23.8437 1138.0
23.8689 1476.0
23.894 1971.0
23.9191 2204.0
23.9442 2396.0
23.9693 2454.0
23.9945 2227.0
24.0196 1948.0
24.0447 1568.0
24.0698 1330.0
24.0949 1152.0
24.1201 1013.0
24.1452 923.0
24.1703 804.0
24.1954 810.0
24.2206 802.0
24.2457 844.0
24.2708 971.0
24.2959 1075.0
24.321 1193.0
24.3462 1297.0
24.3713 1311.0
24.3964 1220.0
24.4215 1043.0
24.4467 884.0
24.4718 698.0
24.4969 596.0
24.522 542.0
24.5471 509.0
24.5723 472.0
24.5974 471.0
24.6225 406.0
24.6476 436.0
24.6728 386.0
24.6979 403.0
24.723 365.0
24.7481 414.0
24.7732 425.0
24.7984 406.0
24.8235 388.0
24.8486 373.0
24.8737 376.0
24.8988 359.0
24.924 368.0
24.9491 367.0
24.9742 345.0
24.9993 366.0
25.0245 349.0
25.0496 377.0
25.0747 414.0
25.0998 514.0
25.1249 593.0
25.1501 746.0
25.1752 866.0
25.2003 863.0
25.2254 897.0
25.2506 807.0
25.2757 733.0
25.3008 606.0
25.3259 578.0
25.351 459.0
25.3762 385.0
25.4013 381.0
25.4264 333.0
25.4515 302.0
25.4766 333.0
25.5018 289.0
25.5269 304.0
25.552 282.0
25.5771 279.0
25.6023 305.0
25.6274 294.0
25.6525 314.0
25.6776 335.0
25.7027 318.0
25.7279 329.0
25.753 333.0
25.7781 341.0
25.8032 293.0
25.8284 308.0
25.8535 285.0
25.8786 308.0
25.9037 298.0
25.9288 312.0
25.954 272.0
25.9791 301.0
26.0042 343.0
26.0293 322.0
26.0544 333.0
26.0796 359.0
26.1047 324.0
26.1298 363.0
26.1549 322.0
26.1801 310.0
26.2052 270.0
26.2303 330.0
26.2554 295.0
26.2805 269.0
26.3057 270.0
26.3308 261.0
26.3559 261.0
26.381 290.0
26.4062 263.0
26.4313 269.0
26.4564 265.0
26.4815 292.0
26.5066 283.0
26.5318 245.0
26.5569 269.0
26.582 276.0
26.6071 290.0
26.6322 297.0
26.6574 291.0
26.6825 354.0
26.7076 346.0
26.7327 388.0
26.7579 398.0
26.783 416.0
26.8081 478.0
26.8332 434.0
26.8583 371.0
26.8835 364.0
26.9086 343.0
26.9337 347.0
26.9588 340.0
26.984 281.0
27.0091 302.0
27.0342 265.0
27.0593 264.0
27.0844 265.0
27.1096 273.0
27.1347 270.0
27.1598 263.0
27.1849 284.0
27.21 283.0
27.2352 276.0
27.2603 266.0
27.2854 277.0
27.3105 293.0
27.3357 316.0
27.3608 295.0
27.3859 312.0
27.411 374.0
27.4361 476.0
27.4613 489.0
27.4864 590.0
27.5115 682.0
27.5366 761.0
27.5618 848.0
27.5869 851.0
27.612 854.0
27.6371 821.0
27.6622 882.0
27.6874 814.0
27.7125 877.0
27.7376 987.0
27.7627 1030.0
27.7879 918.0
27.813 838.0
27.8381 792.0
27.8632 708.0
27.8883 679.0
27.9135 644.0
27.9386 681.0
27.9637 658.0
27.9888 609.0
28.0139 607.0
28.0391 541.0
28.0642 512.0
28.0893 484.0
28.1144 452.0
28.1396 463.0
28.1647 429.0
28.1898 436.0
28.2149 421.0
28.24 382.0
28.2652 374.0
28.2903 389.0
28.3154 377.0
28.3405 401.0
28.3657 369.0
28.3908 401.0
28.4159 350.0
28.441 378.0
28.4661 344.0
28.4913 358.0
28.5164 429.0
28.5415 464.0
28.5666 477.0
28.5917 535.0
28.6169 595.0
28.642 680.0
28.6671 704.0
28.6922 767.0
28.7174 841.0
28.7425 991.0
28.7676 1218.0
28.7927 1493.0
28.8178 1865.0
28.843 1941.0
28.8681 2054.0
28.8932 1861.0
28.9183 1651.0
28.9435 1450.0
28.9686 1220.0
28.9937 958.0
29.0188 792.0
29.0439 777.0
29.0691 675.0
29.0942 606.0
29.1193 611.0
29.1444 667.0
29.1695 792.0
29.1947 1000.0
29.2198 1224.0
29.2449 1656.0
29.27 2111.0
29.2952 2422.0
29.3203 2621.0
29.3454 2753.0
29.3705 2616.0
29.3956 2323.0
29.4208 1935.0
29.4459 1624.0
29.471 1277.0
29.4961 1054.0
29.5213 910.0
29.5464 800.0
29.5715 710.0
29.5966 578.0
29.6217 553.0
29.6469 517.0
29.672 489.0
29.6971 445.0
29.7222 424.0
29.7473 388.0
29.7725 405.0
29.7976 401.0
29.8227 382.0
29.8478 368.0
29.873 366.0
29.8981 404.0
29.9232 411.0
29.9483 436.0
29.9734 391.0
29.9986 407.0
30.0237 440.0
30.0488 393.0
30.0739 411.0
30.0991 388.0
30.1242 436.0
30.1493 408.0
30.1744 386.0
30.1995 403.0
30.2247 372.0
30.2498 405.0
30.2749 431.0
30.3 404.0
30.3252 408.0
30.3503 415.0
30.3754 423.0
30.4005 401.0
30.4256 385.0
30.4508 366.0
30.4759 363.0
30.501 353.0
30.5261 343.0
30.5512 363.0
30.5764 353.0
30.6015 340.0
30.6266 317.0
30.6517 314.0
30.6769 322.0
30.702 329.0
30.7271 310.0
30.7522 341.0
30.7773 363.0
30.8025 330.0
30.8276 335.0
30.8527 336.0
30.8778 319.0
30.903 325.0
30.9281 331.0
30.9532 345.0
30.9783 327.0
31.0034 316.0
31.0286 332.0
31.0537 327.0
31.0788 306.0
31.1039 305.0
31.129 308.0
31.1542 312.0
31.1793 286.0
31.2044 301.0
31.2295 332.0
31.2547 299.0
31.2798 290.0
31.3049 250.0
31.33 300.0
31.3551 296.0
31.3803 289.0
31.4054 282.0
31.4305 291.0
31.4556 296.0
31.4808 305.0
31.5059 289.0
31.531 287.0
31.5561 281.0
31.5812 296.0
31.6064 291.0
31.6315 288.0
31.6566 309.0
31.6817 294.0
31.7068 313.0
31.732 282.0
31.7571 308.0
31.7822 237.0
31.8073 278.0
31.8325 271.0
31.8576 257.0
31.8827 292.0
31.9078 264.0
31.9329 260.0
31.9581 275.0
31.9832 270.0
32.0083 287.0
32.0334 265.0
32.0586 251.0
32.0837 276.0
32.1088 275.0
32.1339 271.0
32.159 275.0
32.1842 252.0
32.2093 260.0
32.2344 285.0
32.2595 275.0
32.2846 249.0
32.3098 303.0
32.3349 274.0
32.36 307.0
32.3851 352.0
32.4103 395.0
32.4354 396.0
32.4605 404.0
32.4856 393.0
32.5107 420.0
32.5359 366.0
32.561 379.0
32.5861 370.0
32.6112 345.0
32.6364 315.0
32.6615 323.0
32.6866 331.0
32.7117 249.0
32.7368 278.0
32.762 261.0
32.7871 249.0
32.8122 258.0
32.8373 246.0
32.8624 272.0
32.8876 265.0
32.9127 251.0
32.9378 241.0
32.9629 295.0
32.9881 279.0
33.0132 273.0
33.0383 259.0
33.0634 281.0
33.0885 296.0
33.1137 291.0
33.1388 367.0
33.1639 398.0
33.189 386.0
33.2142 392.0
33.2393 432.0
33.2644 394.0
33.2895 427.0
33.3146 371.0
33.3398 400.0
33.3649 337.0
33.39 343.0
33.4151 298.0
33.4403 287.0
33.4654 269.0
33.4905 282.0
33.5156 255.0
33.5407 254.0
33.5659 260.0
33.591 292.0
33.6161 317.0
33.6412 319.0
33.6663 348.0
33.6915 403.0
33.7166 482.0
33.7417 521.0
33.7668 574.0
33.792 537.0
33.8171 557.0
33.8422 546.0
33.8673 513.0
33.8924 499.0
33.9176 481.0
33.9427 496.0
33.9678 501.0
33.9929 541.0
34.0181 586.0
34.0432 722.0
34.0683 753.0
34.0934 795.0
34.1185 854.0
34.1437 819.0
34.1688 797.0
34.1939 757.0
34.219 798.0
34.2441 615.0
34.2693 626.0
34.2944 637.0
34.3195 615.0
34.3446 627.0
34.3698 591.0
34.3949 674.0
34.42 558.0
34.4451 667.0
34.4702 588.0
34.4954 570.0
34.5205 564.0
34.5456 596.0
34.5707 666.0
34.5959 756.0
34.621 832.0
34.6461 929.0
34.6712 969.0
34.6963 1027.0
34.7215 944.0
34.7466 900.0
34.7717 758.0
34.7968 666.0
34.8219 592.0
34.8471 501.0
34.8722 416.0
34.8973 404.0
34.9224 329.0
34.9476 291.0
34.9727 278.0
34.9978 271.0
35.0229 257.0
35.048 254.0
35.0732 266.0
35.0983 254.0
35.1234 241.0
35.1485 264.0
35.1737 233.0
35.1988 260.0
35.2239 250.0
35.249 231.0
35.2741 267.0
35.2993 254.0
35.3244 235.0
35.3495 269.0
35.3746 226.0
35.3997 253.0
35.4249 253.0
35.45 243.0
35.4751 263.0
35.5002 246.0
35.5254 239.0
35.5505 292.0
35.5756 260.0
35.6007 277.0
35.6258 262.0
35.651 292.0
35.6761 245.0
35.7012 273.0
35.7263 245.0
35.7515 263.0
35.7766 259.0
35.8017 279.0
35.8268 270.0
35.8519 274.0
35.8771 298.0
35.9022 344.0
35.9273 366.0
35.9524 430.0
35.9776 469.0
36.0027 527.0
36.0278 529.0
36.0529 589.0
36.078 524.0
36.1032 529.0
36.1283 555.0
36.1534 528.0
36.1785 592.0
36.2036 577.0
36.2288 622.0
36.2539 693.0
36.279 624.0
36.3041 605.0
36.3293 580.0
36.3544 501.0
36.3795 455.0
36.4046 424.0
36.4297 392.0
36.4549 359.0
36.48 332.0
36.5051 295.0
36.5302 279.0
36.5554 294.0
36.5805 288.0
36.6056 267.0
36.6307 274.0
36.6558 239.0
36.681 271.0
36.7061 278.0
36.7312 252.0
36.7563 279.0
36.7814 285.0
36.8066 282.0
36.8317 238.0
36.8568 282.0
36.8819 269.0
36.9071 271.0
36.9322 243.0
36.9573 276.0
36.9824 253.0
37.0075 246.0
37.0327 242.0
37.0578 230.0
37.0829 233.0
37.108 237.0
37.1332 235.0
37.1583 242.0
37.1834 267.0
37.2085 267.0
37.2336 252.0
37.2588 234.0
37.2839 257.0
37.309 254.0
37.3341 256.0
37.3592 266.0
37.3844 228.0
37.4095 275.0
37.4346 269.0
37.4597 266.0
37.4849 270.0
37.51 274.0
37.5351 290.0
37.5602 269.0
37.5853 286.0
37.6105 253.0
37.6356 274.0
37.6607 282.0
37.6858 274.0
37.711 296.0
37.7361 310.0
37.7612 277.0
37.7863 278.0
37.8114 275.0
37.8366 301.0
37.8617 310.0
37.8868 273.0
37.9119 304.0
37.937 329.0
37.9622 264.0
37.9873 354.0
38.0124 297.0
38.0375 319.0
38.0627 329.0
38.0878 308.0
38.1129 302.0
38.138 308.0
38.1631 318.0
38.1883 358.0
38.2134 372.0
38.2385 390.0
38.2636 396.0
38.2888 368.0
38.3139 359.0
38.339 339.0
38.3641 345.0
38.3892 336.0
38.4144 335.0
38.4395 321.0
38.4646 298.0
38.4897 295.0
38.5148 257.0
38.54 326.0
38.5651 314.0
38.5902 296.0
38.6153 311.0
38.6405 338.0
38.6656 351.0
38.6907 351.0
38.7158 433.0
38.7409 355.0
38.7661 387.0
38.7912 406.0
38.8163 369.0
38.8414 369.0
38.8666 363.0
38.8917 356.0
38.9168 336.0
38.9419 322.0
38.967 379.0
38.9922 380.0
39.0173 372.0
39.0424 432.0
39.0675 423.0
39.0927 406.0
39.1178 403.0
39.1429 402.0
39.168 374.0
39.1931 420.0
39.2183 366.0
39.2434 386.0
39.2685 430.0
39.2936 384.0
39.3187 338.0
39.3439 371.0
39.369 389.0
39.3941 373.0
39.4192 336.0
39.4444 350.0
39.4695 367.0
39.4946 358.0
39.5197 412.0
39.5448 394.0
39.57 405.0
39.5951 377.0
39.6202 357.0
39.6453 347.0
39.6705 303.0
39.6956 347.0
39.7207 318.0
39.7458 306.0
39.7709 307.0
39.7961 292.0
39.8212 261.0
39.8463 305.0
39.8714 273.0
39.8965 290.0
39.9217 303.0
39.9468 283.0
39.9719 300.0
39.997 248.0
40.0222 294.0
40.0473 289.0
40.0724 257.0
40.0975 283.0
40.1226 281.0
40.1478 245.0
40.1729 246.0
40.198 302.0
40.2231 277.0
40.2483 263.0
40.2734 279.0
40.2985 257.0
40.3236 270.0
40.3487 228.0
40.3739 255.0
40.399 270.0
40.4241 272.0
40.4492 253.0
40.4743 267.0
40.4995 286.0
40.5246 265.0
40.5497 260.0
40.5748 284.0
40.6 273.0
40.6251 285.0
40.6502 295.0
40.6753 297.0
40.7004 262.0
40.7256 296.0
40.7507 273.0
40.7758 304.0
40.8009 328.0
40.8261 373.0
40.8512 421.0
40.8763 411.0
40.9014 480.0
40.9265 449.0
40.9517 485.0
40.9768 437.0
41.0019 462.0
41.027 485.0
41.0521 373.0
41.0773 396.0
41.1024 364.0
41.1275 305.0
41.1526 320.0
41.1778 259.0
41.2029 277.0
41.228 299.0
41.2531 272.0
41.2782 279.0
41.3034 281.0
41.3285 313.0
41.3536 311.0
41.3787 301.0
41.4039 325.0
41.429 425.0
41.4541 435.0
41.4792 450.0
41.5043 589.0
41.5295 698.0
41.5546 727.0
41.5797 717.0
41.6048 767.0
41.6299 741.0
41.6551 675.0
41.6802 648.0
41.7053 606.0
41.7304 470.0
41.7556 471.0
41.7807 434.0
41.8058 368.0
41.8309 390.0
41.856 422.0
41.8812 409.0
41.9063 402.0
41.9314 466.0
41.9565 557.0
41.9817 653.0
42.0068 777.0
42.0319 859.0
42.057 833.0
42.0821 882.0
42.1073 838.0
42.1324 755.0
42.1575 734.0
42.1826 650.0
42.2078 652.0
42.2329 512.0
42.258 481.0
42.2831 472.0
42.3082 479.0
42.3334 428.0
42.3585 431.0
42.3836 378.0
42.4087 384.0
42.4338 393.0
42.459 360.0
42.4841 365.0
42.5092 367.0
42.5343 387.0
42.5595 380.0
42.5846 381.0
42.6097 426.0
42.6348 365.0
42.6599 440.0
42.6851 477.0
42.7102 417.0
42.7353 420.0
42.7604 416.0
42.7856 446.0
42.8107 370.0
42.8358 398.0
42.8609 384.0
42.886 365.0
42.9112 383.0
42.9363 383.0
42.9614 382.0
42.9865 488.0
43.0116 484.0
43.0368 449.0
43.0619 479.0
43.087 497.0
43.1121 461.0
43.1373 450.0
43.1624 412.0
43.1875 390.0
43.2126 385.0
43.2377 382.0
43.2629 333.0
43.288 354.0
43.3131 301.0
43.3382 331.0
43.3634 291.0
43.3885 270.0
43.4136 259.0
43.4387 269.0
43.4638 293.0
43.489 276.0
43.5141 261.0
43.5392 286.0
43.5643 286.0
43.5894 283.0
43.6146 301.0
43.6397 299.0
43.6648 297.0
43.6899 279.0
43.7151 257.0
43.7402 317.0
43.7653 296.0
43.7904 319.0
43.8155 303.0
43.8407 317.0
43.8658 361.0
43.8909 360.0
43.916 387.0
43.9412 348.0
43.9663 359.0
43.9914 355.0
44.0165 358.0
44.0416 349.0
44.0668 369.0
44.0919 408.0
44.117 380.0
44.1421 463.0
44.1672 461.0
44.1924 503.0
44.2175 553.0
44.2426 587.0
44.2677 529.0
44.2929 561.0
44.318 558.0
44.3431 506.0
44.3682 486.0
44.3933 487.0
44.4185 499.0
44.4436 508.0
44.4687 472.0
44.4938 472.0
44.519 516.0
44.5441 573.0
44.5692 578.0
44.5943 560.0
44.6194 567.0
44.6446 547.0
44.6697 512.0
44.6948 539.0
44.7199 520.0
44.7451 504.0
44.7702 450.0
44.7953 497.0
44.8204 530.0
44.8455 566.0
44.8707 613.0
44.8958 688.0
44.9209 761.0
44.946 819.0
44.9711 771.0
44.9963 710.0
45.0214 676.0
45.0465 656.0
45.0716 562.0
45.0968 543.0
45.1219 485.0
45.147 418.0
45.1721 360.0
45.1972 400.0
45.2224 351.0
45.2475 335.0
45.2726 328.0
45.2977 324.0
45.3229 334.0
45.348 338.0
45.3731 340.0
45.3982 312.0
45.4233 358.0
45.4485 352.0
45.4736 379.0
45.4987 405.0
45.5238 367.0
45.5489 369.0
45.5741 369.0
45.5992 365.0
45.6243 325.0
45.6494 349.0
45.6746 344.0
45.6997 351.0
45.7248 324.0
45.7499 329.0
45.775 319.0
45.8002 312.0
45.8253 307.0
45.8504 363.0
45.8755 407.0
45.9007 444.0
45.9258 471.0
45.9509 474.0
45.976 506.0
46.0011 509.0
46.0263 524.0
46.0514 492.0
46.0765 478.0
46.1016 480.0
46.1267 424.0
46.1519 421.0
46.177 385.0
46.2021 428.0
46.2272 352.0
46.2524 402.0
46.2775 372.0
46.3026 390.0
46.3277 438.0
46.3528 429.0
46.378 440.0
46.4031 442.0
46.4282 443.0
46.4533 446.0
46.4785 483.0
46.5036 461.0
46.5287 467.0
46.5538 485.0
46.5789 435.0
46.6041 481.0
46.6292 461.0
46.6543 494.0
46.6794 506.0
46.7045 560.0
46.7297 609.0
46.7548 681.0
46.7799 715.0
46.805 730.0
46.8302 782.0
46.8553 768.0
46.8804 806.0
46.9055 767.0
46.9306 764.0
46.9558 745.0
46.9809 715.0
47.006 736.0
47.0311 739.0
47.0563 691.0
47.0814 637.0
47.1065 611.0
47.1316 613.0
47.1567 594.0
47.1819 635.0
47.207 657.0
47.2321 610.0
47.2572 578.0
47.2823 584.0
47.3075 550.0
47.3326 506.0
47.3577 512.0
47.3828 513.0
47.408 444.0
47.4331 429.0
47.4582 387.0
47.4833 381.0
47.5084 402.0
47.5336 390.0
47.5587 420.0
47.5838 404.0
47.6089 403.0
47.6341 426.0
47.6592 444.0
47.6843 386.0
47.7094 358.0
47.7345 368.0
47.7597 385.0
47.7848 332.0
47.8099 351.0
47.835 356.0
47.8602 346.0
47.8853 316.0
47.9104 305.0
47.9355 368.0
47.9606 320.0
47.9858 339.0
48.0109 294.0
48.036 321.0
48.0611 356.0
48.0862 353.0
48.1114 357.0
48.1365 312.0
48.1616 375.0
48.1867 393.0
48.2119 356.0
48.237 356.0
48.2621 413.0
48.2872 363.0
48.3123 353.0
48.3375 401.0
48.3626 382.0
48.3877 366.0
48.4128 364.0
48.438 333.0
48.4631 366.0
48.4882 314.0
48.5133 354.0
48.5384 347.0
48.5636 282.0
48.5887 355.0
48.6138 339.0
48.6389 364.0
48.664 315.0
48.6892 299.0
48.7143 354.0
48.7394 344.0
48.7645 306.0
48.7897 356.0
48.8148 324.0
48.8399 356.0
48.865 334.0
48.8901 373.0
48.9153 389.0
48.9404 413.0
48.9655 390.0
48.9906 369.0
49.0158 397.0
49.0409 382.0
49.066 402.0
49.0911 359.0
49.1162 417.0
49.1414 360.0
49.1665 365.0
49.1916 374.0
49.2167 397.0
49.2418 363.0
49.267 392.0
49.2921 387.0
49.3172 362.0
49.3423 414.0
49.3675 440.0
49.3926 411.0
49.4177 477.0
49.4428 444.0
49.4679 497.0
49.4931 452.0
49.5182 492.0
49.5433 464.0
49.5684 490.0
49.5936 492.0
49.6187 481.0
49.6438 414.0
49.6689 433.0
49.694 367.0
49.7192 394.0
49.7443 387.0
49.7694 369.0
49.7945 406.0
49.8196 420.0
49.8448 452.0
49.8699 434.0
49.895 429.0
49.9201 444.0
49.9453 413.0
49.9704 436.0
49.9955 446.0
50.0206 407.0
50.0457 395.0
50.0709 419.0
50.096 385.0
50.1211 394.0
50.1462 406.0
50.1714 347.0
50.1965 384.0
50.2216 360.0
50.2467 362.0
50.2718 369.0
50.297 389.0
50.3221 365.0
50.3472 389.0
50.3723 343.0
50.3974 361.0
50.4226 389.0
50.4477 366.0
50.4728 351.0
50.4979 420.0
50.5231 389.0
50.5482 365.0
50.5733 407.0
50.5984 405.0
50.6235 433.0
50.6487 434.0
50.6738 480.0
50.6989 563.0
50.724 543.0
50.7492 586.0
50.7743 608.0
50.7994 686.0
50.8245 682.0
50.8496 705.0
50.8748 644.0
50.8999 603.0
50.925 595.0
50.9501 555.0
50.9753 519.0
51.0004 499.0
51.0255 454.0
51.0506 449.0
51.0757 430.0
51.1009 419.0
51.126 387.0
51.1511 363.0
51.1762 393.0
51.2013 386.0
51.2265 382.0
51.2516 389.0
51.2767 412.0
51.3018 360.0
51.327 383.0
51.3521 385.0
51.3772 379.0
51.4023 366.0
51.4274 413.0
51.4526 365.0
51.4777 413.0
51.5028 453.0
51.5279 461.0
51.5531 532.0
51.5782 515.0
51.6033 617.0
51.6284 635.0
51.6535 594.0
51.6787 628.0
51.7038 657.0
51.7289 617.0
51.754 574.0
51.7791 605.0
51.8043 610.0
51.8294 623.0
51.8545 622.0
51.8796 709.0
51.9048 658.0
51.9299 649.0
51.955 730.0
51.9801 739.0
52.0052 778.0
52.0304 837.0
52.0555 808.0
52.0806 862.0
52.1057 836.0
52.1309 806.0
52.156 820.0
52.1811 740.0
52.2062 710.0
52.2313 673.0
52.2565 625.0
52.2816 603.0
52.3067 557.0
52.3318 487.0
52.3569 454.0
52.3821 407.0
52.4072 413.0
52.4323 387.0
52.4574 400.0
52.4826 418.0
52.5077 395.0
52.5328 379.0
52.5579 394.0
52.583 422.0
52.6082 362.0
52.6333 390.0
52.6584 405.0
52.6835 409.0
52.7087 409.0
52.7338 456.0
52.7589 414.0
52.784 453.0
52.8091 425.0
52.8343 407.0
52.8594 410.0
52.8845 374.0
52.9096 371.0
52.9347 380.0
52.9599 410.0
52.985 400.0
53.0101 371.0
53.0352 385.0
53.0604 377.0
53.0855 384.0
53.1106 401.0
53.1357 381.0
53.1608 359.0
53.186 372.0
53.2111 439.0
53.2362 379.0
53.2613 357.0
53.2865 372.0
53.3116 364.0
53.3367 337.0
53.3618 379.0
53.3869 364.0
53.4121 350.0
53.4372 333.0
53.4623 382.0
53.4874 379.0
53.5126 376.0
53.5377 396.0
53.5628 365.0
53.5879 333.0
53.613 345.0
53.6382 367.0
53.6633 380.0
53.6884 411.0
53.7135 341.0
53.7386 380.0
53.7638 366.0
53.7889 354.0
53.814 363.0
53.8391 379.0
53.8643 419.0
53.8894 394.0
53.9145 395.0
53.9396 384.0
53.9647 401.0
53.9899 357.0
54.015 354.0
54.0401 399.0
54.0652 417.0
54.0904 406.0
54.1155 431.0
54.1406 469.0
54.1657 501.0
54.1908 472.0
54.216 486.0
54.2411 485.0
54.2662 434.0
54.2913 488.0
54.3164 506.0
54.3416 445.0
54.3667 430.0
54.3918 427.0
54.4169 428.0
54.4421 390.0
54.4672 364.0
54.4923 410.0
54.5174 416.0
54.5425 374.0
54.5677 394.0
54.5928 401.0
54.6179 424.0
54.643 419.0
54.6682 452.0
54.6933 504.0
54.7184 489.0
54.7435 495.0
54.7686 467.0
54.7938 436.0
54.8189 454.0
54.844 436.0
54.8691 437.0
54.8942 427.0
54.9194 381.0
54.9445 359.0
54.9696 407.0
54.9947 362.0
55.0199 385.0
55.045 361.0
55.0701 362.0
55.0952 375.0
55.1203 411.0
55.1455 344.0
55.1706 368.0
55.1957 342.0
55.2208 387.0
55.246 388.0
55.2711 364.0
55.2962 362.0
55.3213 336.0
55.3464 351.0
55.3716 363.0
55.3967 399.0
55.4218 381.0
55.4469 388.0
55.472 389.0
55.4972 388.0
55.5223 410.0
55.5474 427.0
55.5725 405.0
55.5977 420.0
55.6228 462.0
55.6479 486.0
55.673 494.0
55.6981 524.0
55.7233 527.0
55.7484 526.0
55.7735 478.0
55.7986 541.0
55.8238 458.0
55.8489 467.0
55.874 540.0
55.8991 447.0
55.9242 429.0
55.9494 418.0
55.9745 415.0
55.9996 385.0
56.0247 300.0
56.0498 355.0
56.075 354.0
56.1001 316.0
56.1252 299.0
56.1503 305.0
56.1755 277.0
56.2006 327.0
56.2257 292.0
56.2508 279.0
56.2759 309.0
56.3011 363.0
56.3262 371.0
56.3513 412.0
56.3764 348.0
56.4016 338.0
56.4267 361.0
56.4518 359.0
56.4769 369.0
56.502 373.0
56.5272 342.0
56.5523 315.0
56.5774 327.0
56.6025 304.0
56.6277 304.0
56.6528 285.0
56.6779 314.0
56.703 283.0
56.7281 285.0
56.7533 303.0
56.7784 310.0
56.8035 289.0
56.8286 302.0
56.8537 258.0
56.8789 269.0
56.904 279.0
56.9291 291.0
56.9542 290.0
56.9794 282.0
57.0045 262.0
57.0296 303.0
57.0547 289.0
57.0798 283.0
57.105 264.0
57.1301 266.0
57.1552 281.0
57.1803 294.0
57.2055 289.0
57.2306 279.0
57.2557 292.0
57.2808 310.0
57.3059 294.0
57.3311 278.0
57.3562 233.0
57.3813 284.0
57.4064 320.0
57.4315 300.0
57.4567 312.0
57.4818 297.0
57.5069 306.0
57.532 270.0
57.5572 332.0
57.5823 310.0
57.6074 343.0
57.6325 308.0
57.6576 302.0
57.6828 328.0
57.7079 342.0
57.733 293.0
57.7581 299.0
57.7833 314.0
57.8084 258.0
57.8335 282.0
57.8586 270.0
57.8837 283.0
57.9089 275.0
57.934 281.0
57.9591 245.0
57.9842 256.0
58.0093 267.0
58.0345 244.0
58.0596 244.0
58.0847 209.0
58.1098 258.0
58.135 245.0
58.1601 270.0
58.1852 240.0
58.2103 264.0
58.2354 241.0
58.2606 269.0
58.2857 230.0
58.3108 265.0
58.3359 269.0
58.3611 289.0
58.3862 285.0
58.4113 282.0
58.4364 290.0
58.4615 266.0
58.4867 273.0
58.5118 257.0
58.5369 286.0
58.562 295.0
58.5871 274.0
58.6123 311.0
58.6374 308.0
58.6625 271.0
58.6876 295.0
58.7128 276.0
58.7379 283.0
58.763 279.0
58.7881 265.0
58.8132 258.0
58.8384 265.0
58.8635 231.0
58.8886 247.0
58.9137 286.0
58.9389 310.0
58.964 269.0
58.9891 280.0
59.0142 282.0
59.0393 294.0
59.0645 296.0
59.0896 268.0
59.1147 308.0
59.1398 324.0
59.165 256.0
59.1901 308.0
59.2152 261.0
59.2403 306.0
59.2654 274.0
59.2906 293.0
59.3157 278.0
59.3408 258.0
59.3659 275.0
59.391 241.0
59.4162 228.0
59.4413 213.0
59.4664 258.0
59.4915 240.0
59.5167 258.0
59.5418 264.0
59.5669 268.0
59.592 272.0
59.6171 301.0
59.6423 282.0
59.6674 275.0
59.6925 321.0
59.7176 327.0
59.7428 325.0
59.7679 331.0
59.793 348.0
59.8181 392.0
59.8432 358.0
59.8684 371.0
59.8935 337.0
59.9186 364.0
59.9437 348.0
59.9688 321.0
59.994 294.0
60.0191 315.0
60.0442 292.0
60.0693 280.0
60.0945 262.0
60.1196 265.0
60.1447 233.0
60.1698 236.0
60.1949 234.0
60.2201 249.0
60.2452 206.0
60.2703 229.0
60.2954 230.0
60.3206 219.0
60.3457 239.0
60.3708 224.0
60.3959 222.0
60.421 237.0
60.4462 247.0
60.4713 233.0
60.4964 252.0
60.5215 264.0
60.5466 287.0
60.5718 343.0
60.5969 316.0
60.622 360.0
60.6471 378.0
60.6723 439.0
60.6974 429.0
60.7225 384.0
60.7476 439.0
60.7727 402.0
60.7979 433.0
60.823 438.0
60.8481 446.0
60.8732 444.0
60.8984 436.0
60.9235 458.0
60.9486 422.0
60.9737 372.0
60.9988 413.0
61.024 366.0
61.0491 359.0
61.0742 360.0
61.0993 363.0
61.1244 361.0
61.1496 358.0
61.1747 348.0
61.1998 305.0
61.2249 362.0
61.2501 321.0
61.2752 341.0
61.3003 305.0
61.3254 311.0
61.3505 310.0
61.3757 283.0
61.4008 294.0
61.4259 276.0
61.451 302.0
61.4762 307.0
61.5013 267.0
61.5264 318.0
61.5515 281.0
61.5766 268.0
61.6018 263.0
61.6269 289.0
61.652 262.0
61.6771 276.0
61.7022 251.0
61.7274 240.0
61.7525 264.0
61.7776 253.0
61.8027 268.0
61.8279 247.0
61.853 278.0
61.8781 235.0
61.9032 215.0
61.9283 265.0
61.9535 226.0
61.9786 225.0
62.0037 206.0
62.0288 252.0
62.054 279.0
62.0791 278.0
62.1042 263.0
62.1293 242.0
62.1544 268.0
62.1796 222.0
62.2047 222.0
62.2298 229.0
62.2549 261.0
62.2801 248.0
62.3052 238.0
62.3303 251.0
62.3554 220.0
62.3805 219.0
62.4057 214.0
62.4308 227.0
62.4559 250.0
62.481 220.0
62.5061 253.0
62.5313 221.0
62.5564 235.0
62.5815 238.0
62.6066 239.0
62.6318 234.0
62.6569 247.0
62.682 231.0
62.7071 236.0
62.7322 241.0
62.7574 228.0
62.7825 236.0
62.8076 268.0
62.8327 275.0
62.8579 231.0
62.883 211.0
62.9081 247.0
62.9332 226.0
62.9583 221.0
62.9835 239.0
63.0086 235.0
63.0337 255.0
63.0588 258.0
63.0839 314.0
63.1091 298.0
63.1342 309.0
63.1593 319.0
63.1844 327.0
63.2096 329.0
63.2347 327.0
63.2598 350.0
63.2849 389.0
63.31 355.0
63.3352 349.0
63.3603 327.0
63.3854 340.0
63.4105 343.0
63.4357 263.0
63.4608 316.0
63.4859 313.0
63.511 307.0
63.5361 288.0
63.5613 260.0
63.5864 273.0
63.6115 277.0
63.6366 250.0
63.6617 238.0
63.6869 261.0
63.712 265.0
63.7371 234.0
63.7622 246.0
63.7874 267.0
63.8125 216.0
63.8376 247.0
63.8627 210.0
63.8878 226.0
63.913 215.0
63.9381 226.0
63.9632 204.0
63.9883 192.0
64.0135 214.0
64.0386 219.0
64.0637 196.0
64.0888 219.0
64.1139 227.0
64.1391 203.0
64.1642 190.0
64.1893 213.0
64.2144 213.0
64.2395 199.0
64.2647 232.0
64.2898 205.0
64.3149 232.0
64.34 213.0
64.3652 210.0
64.3903 217.0
64.4154 215.0
64.4405 239.0
64.4656 188.0
64.4908 196.0
64.5159 218.0
64.541 218.0
64.5661 236.0
64.5913 221.0
64.6164 211.0
64.6415 219.0
64.6666 226.0
64.6917 238.0
64.7169 260.0
64.742 257.0
64.7671 187.0
64.7922 218.0
64.8173 241.0
64.8425 226.0
64.8676 225.0
64.8927 235.0
64.9178 210.0
64.943 247.0
64.9681 221.0
64.9932 212.0
65.0183 206.0
65.0434 221.0
65.0686 226.0
65.0937 231.0
65.1188 201.0
65.1439 198.0
65.1691 198.0
65.1942 211.0
65.2193 221.0
65.2444 218.0
65.2695 244.0
65.2947 248.0
65.3198 205.0
65.3449 214.0
65.37 182.0
65.3952 229.0
65.4203 216.0
65.4454 200.0
65.4705 201.0
65.4956 212.0
65.5208 205.0
65.5459 189.0
65.571 224.0
65.5961 225.0
65.6212 236.0
65.6464 194.0
65.6715 206.0
65.6966 230.0
65.7217 207.0
65.7469 214.0
65.772 212.0
65.7971 225.0
65.8222 251.0
65.8473 254.0
65.8725 240.0
65.8976 227.0
65.9227 258.0
65.9478 250.0
65.973 297.0
65.9981 283.0
66.0232 282.0
66.0483 247.0
66.0734 259.0
66.0986 237.0
66.1237 285.0
66.1488 238.0
66.1739 215.0
66.199 245.0
66.2242 251.0
66.2493 230.0
66.2744 229.0
66.2995 244.0
66.3247 231.0
66.3498 244.0
66.3749 211.0
66.4 224.0
66.4251 258.0
66.4503 201.0
66.4754 234.0
66.5005 218.0
66.5256 215.0
66.5508 224.0
66.5759 208.0
66.601 237.0
66.6261 219.0
66.6512 216.0
66.6764 230.0
66.7015 229.0
66.7266 231.0
66.7517 246.0
66.7768 211.0
66.802 216.0
66.8271 225.0
66.8522 214.0
66.8773 212.0
66.9025 226.0
66.9276 206.0
66.9527 229.0
66.9778 223.0
67.0029 204.0
67.0281 204.0
67.0532 229.0
67.0783 247.0
67.1034 201.0
67.1286 223.0
67.1537 217.0
67.1788 211.0
67.2039 221.0
67.229 228.0
67.2542 227.0
67.2793 213.0
67.3044 218.0
67.3295 244.0
67.3546 241.0
67.3798 224.0
67.4049 192.0
67.43 219.0
67.4551 218.0
67.4803 239.0
67.5054 195.0
67.5305 224.0
67.5556 222.0
67.5807 237.0
67.6059 234.0
67.631 225.0
67.6561 219.0
67.6812 229.0
67.7064 250.0
67.7315 245.0
67.7566 275.0
67.7817 277.0
67.8068 295.0
67.832 281.0
67.8571 300.0
67.8822 284.0
67.9073 268.0
67.9325 268.0
67.9576 308.0
67.9827 293.0
68.0078 316.0
68.0329 337.0
68.0581 365.0
68.0832 332.0
68.1083 370.0
68.1334 399.0
68.1585 382.0
68.1837 421.0
68.2088 370.0
68.2339 427.0
68.259 396.0
68.2842 348.0
68.3093 343.0
68.3344 373.0
68.3595 325.0
68.3846 371.0
68.4098 367.0
68.4349 360.0
68.46 374.0
68.4851 385.0
68.5103 369.0
68.5354 415.0
68.5605 425.0
68.5856 377.0
68.6107 420.0
68.6359 425.0
68.661 450.0
68.6861 488.0
68.7112 418.0
68.7363 444.0
68.7615 399.0
68.7866 395.0
68.8117 423.0
68.8368 457.0
68.862 374.0
68.8871 412.0
68.9122 395.0
68.9373 380.0
68.9624 391.0
68.9876 354.0
69.0127 346.0
69.0378 322.0
69.0629 317.0
69.0881 326.0
69.1132 302.0
69.1383 315.0
69.1634 279.0
69.1885 297.0
69.2137 253.0
69.2388 296.0
69.2639 275.0
69.289 247.0
69.3141 233.0
69.3393 250.0
69.3644 278.0
69.3895 251.0
69.4146 250.0
69.4398 264.0
69.4649 252.0
69.49 263.0
69.5151 274.0
69.5402 297.0
69.5654 314.0
69.5905 299.0
69.6156 312.0
69.6407 339.0
69.6659 315.0
69.691 299.0
69.7161 331.0
69.7412 339.0
69.7663 321.0
69.7915 329.0
69.8166 351.0
69.8417 315.0
69.8668 307.0
69.8919 325.0
69.9171 295.0
69.9422 313.0
69.9673 288.0
69.9924 244.0
70.0176 293.0
70.0427 265.0
70.0678 269.0
70.0929 259.0
70.118 248.0
70.1432 245.0
70.1683 242.0
70.1934 226.0
70.2185 243.0
70.2437 261.0
70.2688 249.0
70.2939 241.0
70.319 246.0
70.3441 254.0
70.3693 261.0
70.3944 280.0
70.4195 278.0
70.4446 319.0
70.4697 278.0
70.4949 284.0
70.52 296.0
70.5451 336.0
70.5702 312.0
70.5954 259.0
70.6205 295.0
70.6456 238.0
70.6707 273.0
70.6958 262.0
70.721 303.0
70.7461 262.0
70.7712 276.0
70.7963 250.0
70.8215 282.0
70.8466 266.0
70.8717 271.0
70.8968 291.0
70.9219 280.0
70.9471 292.0
70.9722 336.0
70.9973 295.0
71.0224 318.0
71.0476 318.0
71.0727 325.0
71.0978 355.0
71.1229 337.0
71.148 313.0
71.1732 341.0
71.1983 322.0
71.2234 337.0
71.2485 300.0
71.2736 324.0
71.2988 306.0
71.3239 288.0
71.349 287.0
71.3741 281.0
71.3993 277.0
71.4244 291.0
71.4495 287.0
71.4746 287.0
71.4997 307.0
71.5249 281.0
71.55 252.0
71.5751 273.0
71.6002 229.0
71.6254 252.0
71.6505 252.0
71.6756 278.0
71.7007 231.0
71.7258 293.0
71.751 270.0
71.7761 272.0
71.8012 269.0
71.8263 286.0
71.8514 268.0
71.8766 295.0
71.9017 270.0
71.9268 297.0
71.9519 295.0
71.9771 288.0
72.0022 275.0
72.0273 265.0
72.0524 269.0
72.0775 294.0
72.1027 295.0
72.1278 252.0
72.1529 265.0
72.178 234.0
72.2032 255.0
72.2283 272.0
72.2534 219.0
72.2785 255.0
72.3036 226.0
72.3288 218.0
72.3539 209.0
72.379 250.0
72.4041 237.0
72.4292 220.0
72.4544 222.0
72.4795 217.0
72.5046 225.0
72.5297 224.0
72.5549 226.0
72.58 232.0
72.6051 268.0
72.6302 245.0
72.6553 280.0
72.6805 265.0
72.7056 263.0
72.7307 270.0
72.7558 261.0
72.781 274.0
72.8061 296.0
72.8312 302.0
72.8563 282.0
72.8814 309.0
72.9066 331.0
72.9317 312.0
72.9568 305.0
72.9819 304.0
73.007 335.0
73.0322 333.0
73.0573 331.0
73.0824 330.0
73.1075 362.0
73.1327 354.0
73.1578 315.0
73.1829 316.0
73.208 294.0
73.2331 282.0
73.2583 277.0
73.2834 285.0
73.3085 273.0
73.3336 229.0
73.3588 249.0
73.3839 291.0
73.409 268.0
73.4341 280.0
73.4592 245.0
73.4844 275.0
73.5095 266.0
73.5346 255.0
73.5597 254.0
73.5848 253.0
73.61 236.0
73.6351 285.0
73.6602 248.0
73.6853 243.0
73.7105 211.0
73.7356 231.0
73.7607 241.0
73.7858 221.0
73.8109 227.0
73.8361 196.0
73.8612 233.0
73.8863 218.0
73.9114 186.0
73.9366 204.0
73.9617 223.0
73.9868 225.0
74.0119 209.0
74.037 212.0
74.0622 204.0
74.0873 210.0
74.1124 198.0
74.1375 214.0
74.1627 229.0
74.1878 198.0
74.2129 190.0
74.238 235.0
74.2631 237.0
74.2883 259.0
74.3134 226.0
74.3385 266.0
74.3636 250.0
74.3887 320.0
74.4139 312.0
74.439 298.0
74.4641 245.0
74.4892 260.0
74.5144 330.0
74.5395 286.0
74.5646 281.0
74.5897 332.0
74.6148 293.0
74.64 283.0
74.6651 249.0
74.6902 242.0
74.7153 274.0
74.7405 264.0
74.7656 274.0
74.7907 234.0
74.8158 267.0
74.8409 271.0
74.8661 231.0
74.8912 263.0
74.9163 232.0
74.9414 247.0
74.9665 222.0
74.9917 240.0
75.0168 223.0
75.0419 250.0
75.067 241.0
75.0922 245.0
75.1173 220.0
75.1424 229.0
75.1675 210.0
75.1926 226.0
75.2178 241.0
75.2429 244.0
75.268 209.0
75.2931 225.0
75.3183 212.0
75.3434 204.0
75.3685 206.0
75.3936 218.0
75.4187 196.0
75.4439 196.0
75.469 223.0
75.4941 225.0
75.5192 202.0
75.5443 204.0
75.5695 237.0
75.5946 219.0
75.6197 225.0
75.6448 250.0
75.67 226.0
75.6951 259.0
75.7202 225.0
75.7453 233.0
75.7704 240.0
75.7956 225.0
75.8207 248.0
75.8458 251.0
75.8709 271.0
75.8961 257.0
75.9212 235.0
75.9463 265.0
75.9714 235.0
75.9965 220.0
76.0217 260.0
76.0468 242.0
76.0719 274.0
76.097 272.0
76.1221 264.0
76.1473 264.0
76.1724 255.0
76.1975 277.0
76.2226 275.0
76.2478 269.0
76.2729 284.0
76.298 259.0
76.3231 261.0
76.3482 262.0
76.3734 240.0
76.3985 252.0
76.4236 270.0
76.4487 225.0
76.4739 269.0
76.499 269.0
76.5241 276.0
76.5492 239.0
76.5743 246.0
76.5995 246.0
76.6246 259.0
76.6497 253.0
76.6748 227.0
76.7 267.0
76.7251 226.0
76.7502 251.0
76.7753 243.0
76.8004 252.0
76.8256 260.0
76.8507 272.0
76.8758 249.0
76.9009 303.0
76.926 285.0
76.9512 272.0
76.9763 313.0
77.0014 285.0
77.0265 312.0
77.0517 318.0
77.0768 275.0
77.1019 315.0
77.127 301.0
77.1521 292.0
77.1773 287.0
77.2024 287.0
77.2275 292.0
77.2526 283.0
77.2778 290.0
77.3029 305.0
77.328 298.0
77.3531 283.0
77.3782 300.0
77.4034 266.0
77.4285 292.0
77.4536 297.0
77.4787 255.0
77.5038 287.0
77.529 265.0
77.5541 295.0
77.5792 267.0
77.6043 280.0
77.6295 269.0
77.6546 238.0
77.6797 248.0
77.7048 276.0
77.7299 272.0
77.7551 292.0
77.7802 267.0
77.8053 232.0
77.8304 254.0
77.8556 253.0
77.8807 248.0
77.9058 238.0
77.9309 243.0
77.956 253.0
77.9812 237.0
78.0063 238.0
78.0314 264.0
78.0565 226.0
78.0816 232.0
78.1068 238.0
78.1319 238.0
78.157 238.0
78.1821 240.0
78.2073 285.0
78.2324 283.0
78.2575 247.0
78.2826 245.0
78.3077 258.0
78.3329 238.0
78.358 249.0
78.3831 269.0
78.4082 290.0
78.4334 273.0
78.4585 249.0
78.4836 274.0
78.5087 252.0
78.5338 255.0
78.559 263.0
78.5841 237.0
78.6092 245.0
78.6343 262.0
78.6594 276.0
78.6846 302.0
78.7097 301.0
78.7348 323.0
78.7599 309.0
78.7851 318.0
78.8102 340.0
78.8353 339.0
78.8604 321.0
78.8855 322.0
78.9107 353.0
78.9358 350.0
78.9609 329.0
78.986 334.0
79.0112 360.0
79.0363 312.0
79.0614 320.0
79.0865 305.0
79.1116 320.0
79.1368 332.0
79.1619 313.0
79.187 308.0
79.2121 300.0
79.2372 293.0
79.2624 291.0
79.2875 291.0
79.3126 269.0
79.3377 289.0
79.3629 268.0
79.388 270.0
79.4131 264.0
79.4382 269.0
79.4633 276.0
79.4885 285.0
79.5136 250.0
79.5387 226.0
79.5638 232.0
79.589 214.0
79.6141 218.0
79.6392 272.0
79.6643 245.0
79.6894 255.0
79.7146 266.0
79.7397 220.0
79.7648 247.0
79.7899 253.0
79.8151 242.0
79.8402 273.0
79.8653 258.0
79.8904 224.0
79.9155 275.0
79.9407 243.0
79.9658 259.0
79.9909 232.0
